# E (eV)  pdos(E) 
  -24.093999863    0.000016116
  -24.073999405    0.000038983
  -24.054000854    0.000090490
  -24.034000397    0.000201287
  -24.013999939    0.000429489
  -23.993999481    0.000879384
  -23.974000931    0.001725985
  -23.954000473    0.003250577
  -23.934000015    0.005874043
  -23.913999557    0.010188063
  -23.893999100    0.016947242
  -23.874000549    0.027064092
  -23.854000092    0.041486412
  -23.833999634    0.061046924
  -23.813999176    0.086234681
  -23.794000626    0.116977200
  -23.774000168    0.152363718
  -23.753999710    0.190551251
  -23.733999252    0.228993952
  -23.714000702    0.264313996
  -23.694000244    0.293149620
  -23.673999786    0.312289149
  -23.653999329    0.319795251
  -23.634000778    0.314597785
  -23.614000320    0.297472566
  -23.593999863    0.270386577
  -23.573999405    0.236193642
  -23.554000854    0.198278040
  -23.534000397    0.159914419
  -23.513999939    0.124046251
  -23.493999481    0.092468798
  -23.474000931    0.066191576
  -23.454000473    0.045571819
  -23.434000015    0.030148450
  -23.413999557    0.019148374
  -23.393999100    0.011689832
  -23.374000549    0.006854256
  -23.354000092    0.003861194
  -23.333999634    0.002088052
  -23.313999176    0.001084120
  -23.294000626    0.000540592
  -23.274000168    0.000258631
  -23.253999710    0.000118787
  -23.233999252    0.000052378
  -23.214000702    0.000022159
  -23.194000244    0.000008993
  -23.173999786    0.000003501
  -23.153999329    0.000001308
  -23.134000778    0.000000470
  -23.114000320    0.000000168
  -23.093999863    0.000000079
  -23.073999405    0.000000100
  -23.054000854    0.000000263
  -23.034000397    0.000000769
  -23.013999939    0.000002186
  -22.993999481    0.000005962
  -22.974000931    0.000015565
  -22.954000473    0.000038926
  -22.934000015    0.000093226
  -22.913999557    0.000213910
  -22.893999100    0.000469766
  -22.874000549    0.000988434
  -22.854000092    0.001991890
  -22.833999634    0.003843748
  -22.813999176    0.007104908
  -22.794000626    0.012572655
  -22.774000168    0.021323670
  -22.753999710    0.034629364
  -22.733999252    0.053811230
  -22.714000702    0.080139346
  -22.694000244    0.114324473
  -22.673999786    0.156137511
  -22.653999329    0.204253241
  -22.634000778    0.255885452
  -22.614000320    0.307308018
  -22.593999863    0.353355050
  -22.573999405    0.389521360
  -22.554000854    0.412456185
  -22.534000397    0.420856178
  -22.513999939    0.417141765
  -22.493999481    0.408454955
  -22.474000931    0.409094095
  -22.454000473    0.441801965
  -22.434000015    0.541422784
  -22.413999557    0.758750141
  -22.393999100    1.164960146
  -22.374000549    1.854500055
  -22.354000092    2.944648981
  -22.333999634    4.569180489
  -22.313999176    6.862899780
  -22.294000626    9.943195343
  -22.274000168   13.873504639
  -22.253999710   18.641496658
  -22.233999252   24.130409241
  -22.214000702   30.115705490
  -22.194000244   36.268188477
  -22.173999786   42.208572388
  -22.153999329   47.529499054
  -22.134000778   51.885192871
  -22.114000320   55.013805389
  -22.093999863   56.819252014
  -22.073999405   57.337879181
  -22.054000854   56.704635620
  -22.034000397   55.147327423
  -22.013999939   52.964199066
  -21.993999481   50.443897247
  -21.974000931   47.829193115
  -21.954000473   45.286685944
  -21.934000015   42.947059631
  -21.913999557   40.865676880
  -21.893999100   39.040092468
  -21.874000549   37.449104309
  -21.854000092   36.067401886
  -21.833999634   34.838211060
  -21.813999176   33.728897095
  -21.794000626   32.751602173
  -21.774000168   31.906322479
  -21.753999710   31.253087997
  -21.733999252   30.856298447
  -21.714000702   30.823928833
  -21.694000244   31.269191742
  -21.673999786   32.306507111
  -21.653999329   34.088005066
  -21.634000778   36.711208344
  -21.614000320   40.243076324
  -21.593999863   44.699184418
  -21.573999405   49.991992950
  -21.554000854   55.933521271
  -21.534000397   62.208026886
  -21.513999939   68.429031372
  -21.493999481   74.183975220
  -21.474000931   79.029998779
  -21.454000473   82.653984070
  -21.434000015   84.887992859
  -21.413999557   85.668983459
  -21.393999100   85.095001221
  -21.374000549   83.388984680
  -21.354000092   80.859031677
  -21.333999634   77.808937073
  -21.313999176   74.542030334
  -21.294000626   71.336982727
  -21.274000168   68.388000488
  -21.253999710   65.800979614
  -21.233999252   63.618007660
  -21.214000702   61.853019714
  -21.194000244   60.407047272
  -21.173999786   59.162036896
  -21.153999329   58.029003143
  -21.134000778   56.891021729
  -21.114000320   55.658969879
  -21.093999863   54.354614258
  -21.073999405   52.996028900
  -21.054000854   51.648384094
  -21.034000397   50.396713257
  -21.013999939   49.298782349
  -20.993999481   48.407524109
  -20.974000931   47.746768951
  -20.954000473   47.274986267
  -20.934000015   46.940074921
  -20.913999557   46.676845551
  -20.893999100   46.402873993
  -20.874000549   46.063095093
  -20.854000092   45.618888855
  -20.833999634   45.047882080
  -20.813999176   44.381984711
  -20.794000626   43.633903503
  -20.774000168   42.875804901
  -20.753999710   42.159492493
  -20.733999252   41.552486420
  -20.714000702   41.106586456
  -20.694000244   40.832611084
  -20.673999786   40.778083801
  -20.653999329   40.875205994
  -20.634000778   41.102493286
  -20.614000320   41.383594513
  -20.593999863   41.633090973
  -20.573999405   41.752983093
  -20.554000854   41.699008942
  -20.534000397   41.441883087
  -20.513999939   40.976497650
  -20.493999481   40.360912323
  -20.474000931   39.645286560
  -20.454000473   38.921306610
  -20.434000015   38.234813690
  -20.413999557   37.654605865
  -20.393999100   37.190105438
  -20.374000549   36.815402985
  -20.354000092   36.533210754
  -20.333999634   36.284206390
  -20.313999176   36.049209595
  -20.294000626   35.800720215
  -20.274000168   35.516799927
  -20.253999710   35.216499329
  -20.233999252   34.888103485
  -20.214000702   34.564411163
  -20.194000244   34.254692078
  -20.173999786   33.942611694
  -20.153999329   33.644500732
  -20.134000778   33.333381653
  -20.114000320   32.985797882
  -20.093999863   32.581268311
  -20.073999405   32.104583740
  -20.054000854   31.549983978
  -20.034000397   30.926984787
  -20.013999939   30.259078979
  -19.993999481   29.568382263
  -19.974000931   28.881389618
  -19.954000473   28.213090897
  -19.934000015   27.569398880
  -19.913999557   26.946294785
  -19.893999100   26.342103958
  -19.874000549   25.756992340
  -19.854000092   25.201791763
  -19.833999634   24.701992035
  -19.813999176   24.289001465
  -19.794000626   23.992092133
  -19.774000168   23.840993881
  -19.753999710   23.841293335
  -19.733999252   23.988288879
  -19.714000702   24.263101578
  -19.694000244   24.637088776
  -19.673999786   25.078889847
  -19.653999329   25.568508148
  -19.634000778   26.092180252
  -19.614000320   26.641897202
  -19.593999863   27.208396912
  -19.573999405   27.778503418
  -19.554000854   28.319004059
  -19.534000397   28.783697128
  -19.513999939   29.113777161
  -19.493999481   29.249086380
  -19.474000931   29.131782532
  -19.454000473   28.741479874
  -19.434000015   28.078592300
  -19.413999557   27.189201355
  -19.393999100   26.146293640
  -19.374000549   25.044193268
  -19.354000092   23.990291595
  -19.333999634   23.083709717
  -19.313999176   22.406404495
  -19.294000626   22.020601273
  -19.274000168   21.953998566
  -19.253999710   22.209701538
  -19.233999252   22.760986328
  -19.214000702   23.558898926
  -19.194000244   24.534610748
  -19.173999786   25.605100632
  -19.153999329   26.683111191
  -19.134000778   27.681402206
  -19.114000320   28.518400192
  -19.093999863   29.135419846
  -19.073999405   29.483812332
  -19.054000854   29.552129745
  -19.034000397   29.342714310
  -19.013999939   28.891212463
  -18.993999481   28.247995377
  -18.974000931   27.481987000
  -18.954000473   26.670698166
  -18.934000015   25.897293091
  -18.913999557   25.234498978
  -18.893999100   24.750703812
  -18.874000549   24.493999481
  -18.854000092   24.489700317
  -18.833999634   24.740303040
  -18.813999176   25.215995789
  -18.794000626   25.863405228
  -18.774000168   26.613998413
  -18.753999710   27.384820938
  -18.733999252   28.092912674
  -18.714000702   28.662927628
  -18.694000244   29.041820526
  -18.673999786   29.192306519
  -18.653999329   29.141801834
  -18.634000778   28.899002075
  -18.614000320   28.507513046
  -18.593999863   28.044733047
  -18.573999405   27.580921173
  -18.554000854   27.195308685
  -18.534000397   26.962614059
  -18.513999939   26.944324493
  -18.493999481   27.184307098
  -18.474000931   27.702306747
  -18.454000473   28.482584000
  -18.434000015   29.473340988
  -18.413999557   30.613620758
  -18.393999100   31.740772247
  -18.374000549   32.830524445
  -18.354000092   33.725883484
  -18.333999634   34.351604462
  -18.313999176   34.673187256
  -18.294000626   34.705879211
  -18.274000168   34.468597412
  -18.253999710   34.041927338
  -18.233999252   33.480995178
  -18.214000702   32.902301788
  -18.194000244   32.350219727
  -18.173999786   31.890815735
  -18.153999329   31.516115189
  -18.134000778   31.243509293
  -18.114000320   31.033594131
  -18.093999863   30.844892502
  -18.073999405   30.624729156
  -18.054000854   30.331197739
  -18.034000397   29.932821274
  -18.013999939   29.397014618
  -17.993999481   28.730615616
  -17.974000931   27.937410355
  -17.954000473   27.042600632
  -17.934000015   26.076221466
  -17.913999557   25.082008362
  -17.893999100   24.088602066
  -17.874000549   23.132003784
  -17.854000092   22.237405777
  -17.833999634   21.426982880
  -17.813999176   20.720687866
  -17.794000626   20.129995346
  -17.774000168   19.662275314
  -17.753999710   19.320096970
  -17.733999252   19.097591400
  -17.714000702   18.975685120
  -17.694000244   18.926998138
  -17.673999786   18.917802811
  -17.653999329   18.908487320
  -17.634000778   18.864093781
  -17.614000320   18.762592316
  -17.593999863   18.590795517
  -17.573999405   18.356903076
  -17.554000854   18.082885742
  -17.534000397   17.796691895
  -17.513999939   17.529405594
  -17.493999481   17.303295135
  -17.474000931   17.128795624
  -17.454000473   16.997299194
  -17.434000015   16.889808655
  -17.413999557   16.770801544
  -17.393999100   16.606697083
  -17.374000549   16.366903305
  -17.354000092   16.028001785
  -17.333999634   15.588207245
  -17.313999176   15.054510117
  -17.294000626   14.449806213
  -17.274000168   13.805307388
  -17.253999710   13.154709816
  -17.233999252   12.532301903
  -17.214000702   11.968801498
  -17.194000244   11.487901688
  -17.173999786   11.107199669
  -17.153999329   10.840997696
  -17.134000778   10.697196960
  -17.114000320   10.672395706
  -17.093999863   10.762888908
  -17.073999405   10.954001427
  -17.054000854   11.223194122
  -17.034000397   11.537002563
  -17.013999939   11.860611916
  -16.993999481   12.152191162
  -16.974000931   12.377309799
  -16.954000473   12.504810333
  -16.934000015   12.522008896
  -16.913999557   12.426504135
  -16.893999100   12.230200768
  -16.874000549   11.965496063
  -16.854000092   11.659298897
  -16.833999634   11.342302322
  -16.813999176   11.037196159
  -16.794000626   10.756901741
  -16.774000168   10.494494438
  -16.753999710   10.240293503
  -16.733999252    9.980795860
  -16.714000702    9.692293167
  -16.694000244    9.375200272
  -16.673999786    9.022099495
  -16.653999329    8.652094841
  -16.634000778    8.281300545
  -16.614000320    7.943001747
  -16.593999863    7.668201923
  -16.573999405    7.496497631
  -16.554000854    7.471005917
  -16.534000397    7.631602287
  -16.513999939    8.028703690
  -16.493999481    8.701501846
  -16.474000931    9.686603546
  -16.454000473   11.008490562
  -16.434000015   12.665792465
  -16.413999557   14.630594254
  -16.393999100   16.852701187
  -16.374000549   19.249317169
  -16.354000092   21.722103119
  -16.333999634   24.163717270
  -16.313999176   26.472295761
  -16.294000626   28.556680679
  -16.274000168   30.347097397
  -16.253999710   31.803577423
  -16.233999252   32.912281036
  -16.214000702   33.686183929
  -16.194000244   34.162765503
  -16.173999786   34.397594452
  -16.153999329   34.453979492
  -16.134000778   34.401496887
  -16.114000320   34.292594910
  -16.093999863   34.173362732
  -16.073999405   34.063381195
  -16.054000854   33.969280243
  -16.034000397   33.877887726
  -16.013999939   33.766696930
  -15.994000435   33.620285034
  -15.973999977   33.419189453
  -15.954000473   33.162284851
  -15.934000015   32.855972290
  -15.913999557   32.523693085
  -15.894000053   32.185379028
  -15.873999596   31.868686676
  -15.854000092   31.594289780
  -15.833999634   31.372783661
  -15.814000130   31.206277847
  -15.793999672   31.089063644
  -15.774000168   31.011371613
  -15.753999710   30.961269379
  -15.734000206   30.933498383
  -15.713999748   30.915390015
  -15.694000244   30.907487869
  -15.673999786   30.899688721
  -15.654000282   30.893989563
  -15.633999825   30.882383347
  -15.614000320   30.872093201
  -15.593999863   30.868585587
  -15.574000359   30.886381149
  -15.553999901   30.943195343
  -15.534000397   31.058895111
  -15.513999939   31.240785599
  -15.494000435   31.490713120
  -15.473999977   31.783693314
  -15.454000473   32.092319489
  -15.434000015   32.366798401
  -15.413999557   32.569709778
  -15.394000053   32.668693542
  -15.373999596   32.645496368
  -15.354000092   32.508083344
  -15.333999634   32.270797729
  -15.314000130   31.956794739
  -15.293999672   31.584604263
  -15.274000168   31.162405014
  -15.253999710   30.692192078
  -15.234000206   30.173301697
  -15.213999748   29.607999802
  -15.194000244   29.016592026
  -15.173999786   28.429481506
  -15.154000282   27.892484665
  -15.133999825   27.457197189
  -15.114000320   27.163381577
  -15.093999863   27.044494629
  -15.074000359   27.108901978
  -15.053999901   27.347692490
  -15.034000397   27.735994339
  -15.013999939   28.240612030
  -14.994000435   28.824583054
  -14.973999977   29.463500977
  -14.954000473   30.125488281
  -14.934000015   30.782913208
  -14.913999557   31.400110245
  -14.894000053   31.952192307
  -14.873999596   32.357986450
  -14.854000092   32.653495789
  -14.833999634   32.715908051
  -14.814000130   32.602413177
  -14.793999672   32.244709015
  -14.774000168   31.762815475
  -14.753999710   31.147886276
  -14.734000206   30.459424973
  -14.713999748   29.764009476
  -14.694000244   29.106201172
  -14.673999786   28.528802872
  -14.654000282   28.069711685
  -14.633999825   27.750705719
  -14.614000320   27.585809708
  -14.593999863   27.585693359
  -14.574000359   27.739589691
  -14.553999901   28.038908005
  -14.534000397   28.448322296
  -14.513999939   28.928815842
  -14.494000435   29.425010681
  -14.473999977   29.887498856
  -14.454000473   30.247165680
  -14.434000015   30.498027802
  -14.413999557   30.663904190
  -14.394000053   30.623010635
  -14.373999596   30.472702026
  -14.354000092   30.215391159
  -14.333999634   29.893192291
  -14.314000130   29.574010849
  -14.293999672   29.291406631
  -14.274000168   29.068105698
  -14.253999710   28.930511475
  -14.234000206   28.887205124
  -14.213999748   28.924116135
  -14.194000244   29.013237000
  -14.173999786   29.124227524
  -14.154000282   29.262289047
  -14.133999825   29.312480927
  -14.114000320   29.357505798
  -14.093999863   29.305515289
  -14.074000359   29.245502472
  -14.053999901   29.165588379
  -14.034000397   29.103088379
  -14.013999939   29.070102692
  -13.994000435   29.063613892
  -13.973999977   29.137926102
  -13.954000473   29.257707596
  -13.934000015   29.479852676
  -13.913999557   29.764635086
  -13.894000053   30.114065170
  -13.873999596   30.417106628
  -13.854000092   30.737102509
  -13.833999634   31.023910522
  -13.814000130   31.277244568
  -13.793999672   31.435928345
  -13.774000168   31.489036560
  -13.753999710   31.433509827
  -13.734000206   31.271530151
  -13.713999748   30.989011765
  -13.694000244   30.588878632
  -13.673999786   30.087774277
  -13.654000282   29.488298416
  -13.633999825   28.825773239
  -13.614000320   28.152025223
  -13.593999863   27.527193069
  -13.574000359   26.986110687
  -13.553999901   26.595207214
  -13.534000397   26.401815414
  -13.513999939   26.442228317
  -13.494000435   26.728000641
  -13.473999977   27.239271164
  -13.454000473   28.006601334
  -13.434000015   28.845588684
  -13.413999557   29.805456161
  -13.394000053   30.769388199
  -13.373999596   31.659732819
  -13.354000092   32.385860443
  -13.333999634   32.925804138
  -13.314000130   33.245075226
  -13.293999672   33.412418365
  -13.274000168   33.413917542
  -13.253999710   33.312309265
  -13.234000206   33.152931213
  -13.213999748   32.989421844
  -13.194000244   32.879390717
  -13.173999786   32.831581116
  -13.154000282   32.875602722
  -13.133999825   33.003414154
  -13.114000320   33.198814392
  -13.093999863   33.433498383
  -13.074000359   33.703895569
  -13.053999901   33.962398529
  -13.034000397   34.232109070
  -13.013999939   34.463504791
  -12.994000435   34.657310486
  -12.973999977   34.817501068
  -12.954000473   34.910594940
  -12.934000015   34.936008453
  -12.913999557   34.882392883
  -12.894000053   34.729988098
  -12.873999596   34.501876831
  -12.854000092   34.181766510
  -12.833999634   33.811378479
  -12.814000130   33.413990021
  -12.793999672   33.018424988
  -12.774000168   32.687725067
  -12.753999710   32.436527252
  -12.734000206   32.306690216
  -12.713999748   32.340229034
  -12.694000244   32.526897430
  -12.673999786   32.914112091
  -12.654000282   33.467605591
  -12.633999825   34.199516296
  -12.614000320   35.078590393
  -12.593999863   36.090106964
  -12.574000359   37.166412354
  -12.553999901   38.298404694
  -12.534000397   39.374427795
  -12.513999939   40.353794098
  -12.494000435   41.156791687
  -12.473999977   41.693187714
  -12.454000473   41.928989410
  -12.434000015   41.822593689
  -12.413999557   41.402404785
  -12.394000053   40.654499054
  -12.373999596   39.612224579
  -12.354000092   38.379589081
  -12.333999634   36.992996216
  -12.314000130   35.536502838
  -12.293999672   34.077186584
  -12.274000168   32.706295013
  -12.253999710   31.483001709
  -12.234000206   30.480579376
  -12.213999748   29.751209259
  -12.194000244   29.381986618
  -12.173999786   29.372093201
  -12.154000282   29.755800247
  -12.133999825   30.513666153
  -12.114000320   31.630977631
  -12.093999863   33.036365509
  -12.074000359   34.666599274
  -12.053999901   36.414131165
  -12.034000397   38.188545227
  -12.013999939   39.869400024
  -11.994000435   41.380096436
  -11.973999977   42.650466919
  -11.954000473   43.604221344
  -11.934000015   44.218692780
  -11.913999557   44.514190674
  -11.894000053   44.481605530
  -11.873999596   44.197216034
  -11.854000092   43.671401978
  -11.833999634   42.975906372
  -11.814000130   42.150775909
  -11.793999672   41.234397888
  -11.774000168   40.275413513
  -11.753999710   39.277809143
  -11.734000206   38.255016327
  -11.713999748   37.238628387
  -11.694000244   36.229999542
  -11.673999786   35.240299225
  -11.654000282   34.324085236
  -11.633999825   33.501586914
  -11.614000320   32.804183960
  -11.593999863   32.292572021
  -11.574000359   32.008174896
  -11.553999901   31.988267899
  -11.534000397   32.265594482
  -11.513999939   32.869865417
  -11.494000435   33.773380280
  -11.473999977   34.997779846
  -11.454000473   36.494838715
  -11.434000015   38.210418701
  -11.413999557   40.081821442
  -11.394000053   42.027812958
  -11.373999596   43.957931519
  -11.354000092   45.752285004
  -11.333999634   47.324390411
  -11.314000130   48.578716278
  -11.293999672   49.459320068
  -11.274000168   49.897102356
  -11.253999710   49.907798767
  -11.234000206   49.487735748
